#Wave		#Intensity
2073.742188	530.310852
2072.101562	533.358643
2070.460938	524.092041
2068.818359	543.769897
2067.177734	507.094666
2065.535156	535.901917
2063.892578	508.378296
2062.250000	553.910706
2060.607422	532.481201
2058.962891	523.229919
2057.318359	529.189514
2055.673828	554.910217
2054.029297	487.902161
2052.384766	519.698792
2050.738281	518.057373
2049.093750	530.086548
2047.447266	498.073090
2045.800781	464.556488
2044.152344	509.981323
2042.505859	471.925323
2040.857422	500.639038
2039.208984	509.621765
2037.560547	471.592590
2035.912109	498.770050
2034.261719	515.325134
2032.611328	483.382568
2030.962891	484.783905
2029.310547	472.553192
2027.660156	490.613007
2026.009766	505.636505
2024.357422	454.057800
2022.705078	449.411560
2021.052734	482.587891
2019.400391	493.061676
2017.746094	486.897400
2016.091797	515.506226
2014.437500	473.066071
2012.783203	457.844543
2011.128906	447.162170
2009.474609	512.001221
2007.818359	471.111633
2006.162109	514.779907
2004.505859	531.260864
2002.849609	511.520233
2001.191406	473.686188
1999.533203	478.099518
1997.875000	465.924438
1996.216797	465.814972
1994.558594	507.905426
1992.900391	450.528320
1991.240234	463.980377
1989.580078	489.474670
1987.919922	486.348267
1986.259766	495.266266
1984.597656	502.675018
1982.935547	484.501007
1981.275391	520.490601
1979.611328	464.722076
1977.949219	455.591309
1976.287109	459.994080
1974.623047	455.377380
1972.958984	488.326385
1971.294922	443.146027
1969.630859	428.023590
1967.964844	438.433502
1966.300781	484.865631
1964.634766	438.227631
1962.968750	432.123047
1961.300781	453.022644
1959.634766	419.922394
1957.966797	458.807434
1956.298828	443.709564
1954.630859	464.586731
1952.962891	442.002930
1951.292969	440.401215
1949.625000	450.781128
1947.955078	426.719177
1946.285156	416.140656
1944.613281	411.553314
1942.943359	403.975677
1941.271484	379.947174
1939.599609	415.750122
1937.927734	405.186462
1936.255859	429.008209
1934.582031	373.612854
1932.910156	376.513367
1931.236328	391.362518
1929.562500	443.539673
1927.886719	370.276184
1926.212891	376.160095
1924.537109	335.778442
1922.861328	395.379578
1921.185547	405.728363
1919.509766	369.842010
1917.832031	392.119476
1916.156250	403.952271
1914.478516	426.211243
1912.800781	409.722382
1911.121094	384.303925
1909.443359	405.062561
1907.763672	399.012146
1906.083984	404.872559
1904.404297	363.109314
1902.724609	385.341217
1901.042969	361.451569
1899.361328	405.979980
1897.679688	391.017181
1895.998047	405.789581
1894.316406	370.028961
1892.632812	341.713684
1890.951172	432.240692
1889.267578	377.193787
1887.583984	335.534668
1885.898438	353.267822
1884.214844	362.088806
1882.529297	347.167694
1880.843750	384.168152
1879.158203	327.726868
1877.470703	326.167450
1875.785156	383.898010
1874.097656	357.134094
1872.410156	362.976532
1870.722656	365.853821
1869.035156	361.325531
1867.345703	359.760315
1865.656250	367.076752
1863.966797	349.233093
1862.277344	402.411591
1860.587891	343.152954
1858.896484	396.307922
1857.205078	298.639709
1855.513672	338.477539
1853.822266	369.430359
1852.130859	379.685425
1850.437500	357.441010
1848.744141	361.787292
1847.050781	354.320831
1845.357422	338.001892
1843.664062	342.349640
1841.968750	336.368225
1840.273438	343.664185
1838.578125	339.159821
1836.882812	364.142822
1835.187500	380.270599
1833.490234	383.128662
1831.792969	369.779877
1830.095703	300.467804
1828.398438	384.332001
1826.699219	353.325928
1825.001953	334.109161
1823.302734	348.745941
1821.603516	372.202759
1819.902344	350.053375
1818.203125	355.853271
1816.501953	352.829681
1814.800781	389.491516
1813.099609	339.439514
1811.398438	359.927277
1809.697266	355.436768
1807.994141	364.163940
1806.291016	342.057770
1804.587891	331.703674
1802.884766	314.017517
1801.179688	385.828369
1799.474609	350.537598
1797.769531	369.517975
1796.064453	389.955414
1794.359375	398.658051
1792.652344	392.703461
1790.947266	366.242096
1789.240234	351.510101
1787.533203	347.034973
1785.824219	390.871918
1784.117188	383.462433
1782.408203	338.011780
1780.699219	332.080994
1778.990234	330.540710
1777.279297	333.387787
1775.570312	318.690918
1773.859375	327.385590
1772.148438	315.619354
1770.437500	319.928070
1768.724609	384.115936
1767.013672	370.884460
1765.300781	322.623169
1763.587891	360.494446
1761.875000	376.460754
1760.160156	307.808655
1758.447266	304.819672
1756.732422	284.334595
1755.017578	325.086060
1753.302734	335.212097
1751.585938	282.677948
1749.869141	346.709351
1748.154297	330.607605
1746.437500	317.425537
1744.718750	301.338135
1743.001953	334.741821
1741.283203	291.011749
1739.564453	328.766357
1737.845703	299.601898
1736.126953	305.347961
1734.406250	261.665619
1732.687500	292.124939
1730.966797	338.553162
1729.244141	306.515076
1727.523438	335.490143
1725.802734	323.795715
1724.080078	322.268311
1722.357422	309.131073
1720.634766	303.254883
1718.910156	320.591644
1717.187500	306.013672
1715.462891	329.141510
1713.738281	298.622467
1712.013672	298.552643
1710.287109	328.910706
1708.562500	295.515839
1706.835938	293.998474
1705.109375	305.513184
1703.382812	325.708038
1701.654297	296.686829
1699.927734	315.427368
1698.199219	286.422089
1696.470703	251.645432
1694.742188	312.314423
1693.011719	278.993500
1691.281250	329.511108
1689.550781	309.205688
1687.820312	270.130615
1686.089844	310.505402
1684.359375	323.427673
1682.626953	288.707214
1680.894531	308.844543
1679.162109	271.257965
1677.429688	302.930115
1675.695312	284.110901
1673.960938	305.672272
1672.226562	305.600830
1670.492188	282.470612
1668.757812	319.866425
1667.021484	276.576599
1665.285156	276.511993
1663.548828	325.401611
1661.812500	259.108887
1660.076172	305.101379
1658.337891	326.612427
1656.599609	304.958862
1654.861328	322.145416
1653.123047	320.632324
1651.384766	278.870605
1649.644531	252.936920
1647.904297	265.809082
1646.164062	310.277588
1644.423828	291.535370
1642.681641	268.494476
1640.941406	285.657349
1639.199219	268.369080
1637.457031	308.480652
1635.712891	318.449799
1633.970703	299.731842
1632.226562	273.853638
1630.482422	306.759155
1628.738281	303.821289
1626.992188	300.884766
1625.248047	290.787354
1623.501953	322.226013
1621.755859	304.969421
1620.009766	306.329651
1618.261719	296.240356
1616.515625	284.724976
1614.767578	287.519379
1613.019531	314.624359
1611.271484	350.295349
1609.521484	344.495819
1607.773438	338.698975
1606.023438	347.192566
1604.273438	371.395050
1602.521484	368.452148
1600.771484	358.371704
1599.019531	371.135071
1597.267578	386.746643
1595.515625	426.606140
1593.763672	425.080139
1592.009766	462.059814
1590.257812	456.248871
1588.503906	521.712891
1586.748047	568.619873
1584.994141	606.956238
1583.238281	699.403687
1581.484375	833.107300
1579.728516	978.138794
1577.970703	1185.734375
1576.214844	1400.348633
1574.457031	1481.120850
1572.699219	1227.578369
1570.941406	1187.472534
1569.183594	1185.773682
1567.425781	970.856750
1565.666016	841.307678
1563.906250	652.145508
1562.146484	620.743164
1560.386719	558.112488
1558.625000	522.487305
1556.863281	488.298126
1555.101562	447.029175
1553.339844	505.096100
1551.578125	485.119598
1549.814453	456.643524
1548.050781	547.277283
1546.287109	528.722351
1544.523438	498.838806
1542.759766	393.877441
1540.994141	386.703125
1539.228516	371.035126
1537.462891	382.275299
1535.697266	319.903992
1533.929688	348.132874
1532.164062	386.252533
1530.396484	362.115723
1528.628906	379.001526
1526.859375	395.879456
1525.091797	363.276062
1523.322266	397.108093
1521.552734	473.310333
1519.783203	514.163574
1518.013672	610.073914
1516.242188	628.286133
1514.470703	653.547607
1512.699219	647.750427
1510.927734	554.480591
1509.156250	561.404175
1507.382812	589.478027
1505.609375	518.845337
1503.835938	477.846710
1502.062500	445.322632
1500.287109	401.542328
1498.511719	407.083130
1496.738281	336.575104
1494.960938	344.944275
1493.185547	319.526978
1491.410156	313.823425
1489.632812	337.668488
1487.855469	336.183197
1486.078125	343.136353
1484.298828	341.650452
1482.521484	338.759583
1480.742188	387.866669
1478.962891	328.766876
1477.181641	320.262329
1475.402344	356.700378
1473.621094	343.981262
1471.839844	380.396759
1470.058594	384.518219
1468.277344	360.577271
1466.494141	416.601196
1464.712891	430.527863
1462.929688	452.860321
1461.146484	493.404694
1459.361328	489.085632
1457.578125	546.415405
1455.792969	613.523621
1454.007812	599.376648
1452.222656	816.250549
1450.435547	981.232239
1448.648438	1151.734863
1446.863281	1172.453369
1445.076172	925.994507
1443.287109	711.814941
1441.500000	595.604248
1439.710938	581.487549
1437.921875	550.607605
1436.132812	571.436768
1434.343750	547.557617
1432.552734	499.949005
1430.761719	469.116669
1428.970703	443.882080
1427.179688	417.263672
1425.388672	491.112488
1423.595703	497.972595
1421.802734	458.809113
1420.009766	430.817719
1418.216797	402.839294
1416.421875	412.500641
1414.628906	326.022583
1412.833984	370.520660
1411.037109	380.182709
1409.242188	356.425385
1407.447266	310.407684
1405.650391	283.894318
1403.853516	308.871948
1402.056641	407.560455
1400.257812	305.946899
1398.460938	333.682617
1396.662109	300.244507
1394.863281	336.306793
1393.062500	307.051697
1391.263672	311.147430
1389.462891	334.683441
1387.662109	298.507050
1385.861328	285.944885
1384.060547	285.878387
1382.257812	284.424469
1380.455078	285.745422
1378.652344	302.320465
1376.849609	288.385468
1375.046875	300.793732
1373.242188	289.637177
1371.437500	278.485809
1369.632812	314.435730
1367.828125	289.435181
1366.021484	315.674072
1364.216797	307.295380
1362.410156	326.598419
1360.603516	369.413147
1358.794922	347.195312
1356.988281	345.731659
1355.179688	351.181702
1353.371094	295.808716
1351.562500	335.816864
1349.751953	350.936859
1347.943359	360.524506
1346.132812	390.822693
1344.322266	432.152191
1342.509766	491.407104
1340.699219	554.774536
1338.886719	568.442749
1337.074219	594.519165
1335.261719	493.708588
1333.449219	456.367493
1331.634766	464.532043
1329.820312	373.468628
1328.005859	389.915344
1326.191406	378.804962
1324.376953	369.076874
1322.560547	450.224243
1320.744141	412.953796
1318.927734	485.796082
1317.111328	478.803833
1315.292969	522.710327
1313.474609	510.211761
1311.656250	547.215942
1309.837891	500.352570
1308.019531	560.704468
1306.199219	703.465698
1304.378906	864.017883
1302.558594	954.456177
1300.738281	1036.614380
1298.916016	859.297913
1297.095703	635.403381
1295.273438	498.051544
1293.451172	486.962067
1291.626953	440.221191
1289.804688	440.118958
1287.980469	390.669067
1286.156250	407.023773
1284.332031	406.929230
1282.505859	409.574371
1280.681641	402.631805
1278.855469	409.384186
1277.029297	387.387390
1275.201172	387.297455
1273.375000	391.312195
1271.546875	393.957153
1269.718750	289.928925
1267.890625	347.287018
1266.062500	319.867310
1264.232422	336.192719
1262.402344	351.144196
1260.572266	295.056580
1258.742188	340.055695
1256.910156	296.284973
1255.080078	301.676422
1253.248047	308.430084
1251.416016	315.180573
1249.582031	301.466431
1247.750000	286.394806
1245.916016	319.051605
1244.082031	308.072327
1242.248047	382.956818
1240.412109	395.130615
1238.578125	448.164856
1236.742188	392.223480
1234.906250	486.080902
1233.068359	566.282166
1231.232422	574.316406
1229.394531	474.857635
1227.556641	342.797607
1225.718750	346.798065
1223.880859	345.357910
1222.041016	305.856323
1220.201172	281.322540
1218.361328	277.181091
1216.521484	308.360352
1214.679688	239.025696
1212.839844	217.245697
1210.998047	268.779175
1209.156250	242.930893
1207.312500	267.297668
1205.470703	268.592224
1203.626953	273.954773
1201.783203	302.365082
1199.939453	284.672394
1198.093750	406.580536
1196.248047	462.039368
1194.404297	380.653839
1192.556641	337.227142
1190.710938	278.926453
1188.865234	273.446991
1187.017578	266.616669
1185.169922	274.673279
1183.322266	250.259964
1181.472656	263.726379
1179.623047	254.200333
1177.775391	264.955933
1175.923828	285.167053
1174.074219	297.261658
1172.224609	274.227844
1170.373047	301.175537
1168.521484	329.460999
1166.669922	268.637451
1164.816406	236.184219
1162.964844	236.129471
1161.111328	226.631760
1159.257812	199.605515
1157.402344	207.649506
1155.548828	199.513016
1153.693359	233.160492
1151.837891	218.284668
1149.982422	215.539841
1148.126953	211.449463
1146.269531	220.825958
1144.412109	227.505737
1142.554688	185.730881
1140.697266	231.437027
1138.837891	299.991272
1136.980469	240.744385
1135.121094	231.276215
1133.261719	262.141937
1131.400391	221.761017
1129.541016	252.614639
1127.679688	196.134003
1125.818359	232.351532
1123.957031	288.693695
1122.093750	237.613708
1120.230469	268.427887
1118.367188	237.503662
1116.503906	214.642853
1114.640625	201.181076
1112.775391	197.111786
1110.912109	178.297943
1109.044922	205.062164
1107.179688	238.513809
1105.314453	202.287903
1103.447266	198.223022
1101.580078	211.567474
1099.712891	231.599350
1097.845703	214.146347
1095.976562	268.959045
1094.107422	247.492065
1092.238281	227.372498
1090.369141	205.925049
1088.500000	171.118851
1086.628906	207.166275
1084.757812	175.048386
1082.886719	185.695374
1081.015625	207.022446
1079.142578	206.974533
1077.269531	225.616776
1075.396484	186.858215
1073.523438	166.799072
1071.648438	188.105804
1069.775391	152.050354
1067.900391	157.349030
1066.025391	175.976822
1064.148438	165.273315
1062.273438	187.888260
1060.396484	225.147293
1058.519531	171.818222
1056.642578	187.757858
1054.763672	158.425644
1052.886719	170.367996
1051.007812	158.352341
1049.128906	171.619553
1047.248047	167.589615
1045.369141	176.859238
1043.488281	162.194244
1041.607422	158.169266
1039.726562	183.380753
1037.843750	156.767563
1035.960938	150.090149
1034.080078	124.824867
1032.195312	151.348343
1030.312500	161.931808
1028.427734	152.605347
1026.544922	181.757370
1024.660156	184.368103
1022.773438	160.455978
1020.888672	155.115768
1019.001953	156.405380
1017.115234	182.872467
1015.228516	193.429031
1013.341797	169.542404
1011.453125	140.369843
1009.564453	172.111893
1007.675781	172.072098
1005.787109	142.919159
1003.898438	166.700455
1002.007812	157.402924
1000.117188	115.049484
998.226562	145.431244
996.333984	178.442535
994.443359	145.364014
992.550781	181.002426
990.658203	151.901230
988.765625	163.751282
986.871094	153.151276
984.976562	162.355637
983.083984	170.236069
981.187500	212.416077
979.292969	168.838348
977.396484	163.524353
975.500000	135.799316
973.603516	167.403183
971.707031	180.542816
969.810547	144.927887
967.912109	154.114960
966.013672	159.347015
964.115234	146.144058
962.214844	164.538620
960.316406	172.396637
958.416016	172.356812
956.515625	136.801285
954.613281	156.496078
952.712891	145.941605
950.810547	139.335464
948.908203	185.299652
947.005859	164.234787
945.101562	153.688263
943.199219	140.520050
941.294922	133.922745
939.390625	173.271774
937.484375	165.357574
935.580078	196.808792
933.673828	158.722427
931.767578	137.702530
929.861328	179.627533
927.953125	195.316223
926.046875	145.470428
924.138672	153.298294
922.230469	186.011383
920.320312	167.633514
918.412109	136.170792
916.501953	145.302567
914.591797	128.255539
912.679688	162.245056
910.769531	158.283218
908.857422	126.858910
906.945312	155.595108
905.033203	155.559189
903.121094	142.454102
901.207031	150.260910
899.292969	148.919922
897.378906	134.519394
895.464844	146.239761
893.548828	129.235672
891.634766	118.764961
889.718750	134.395248
887.800781	173.499451
885.884766	168.242599
883.966797	148.645187
882.048828	136.878448
880.130859	159.003036
878.212891	130.300278
876.292969	128.967514
874.373047	135.449768
872.453125	113.282799
870.533203	148.405273
868.613281	140.562042
866.691406	157.445206
864.769531	92.363892
862.847656	148.268387
860.925781	139.132080
859.001953	123.499985
857.078125	142.966995
855.154297	150.730423
853.230469	129.910049
851.304688	151.959702
849.378906	141.536652
847.453125	136.311188
845.527344	129.790253
843.601562	151.819565
841.673828	134.919601
839.746094	118.027428
837.818359	145.231033
835.890625	121.862228
833.960938	123.130234
832.031250	142.538971
830.101562	126.959991
828.171875	156.720581
826.242188	147.620056
824.310547	148.880630
822.378906	141.080414
820.447266	174.692352
818.513672	153.952576
816.582031	150.036819
814.648438	188.795914
812.714844	153.846130
810.781250	164.150879
808.845703	134.391785
806.910156	131.776947
804.974609	174.370468
803.039062	151.086243
801.103516	162.670761
799.166016	127.783287
797.228516	163.886246
795.291016	148.366730
793.353516	141.883301
791.414062	179.247574
789.474609	192.098816
787.535156	186.898727
785.595703	164.948441
783.654297	136.566452
781.714844	137.823059
779.773438	114.611458
777.830078	158.359131
775.888672	163.471344
773.945312	155.712402
772.001953	156.963120
770.058594	208.378433
768.115234	209.616425
766.169922	190.282730
764.226562	190.238892
762.281250	188.909973
760.333984	185.012054
758.388672	195.245514
756.441406	159.242554
754.494141	160.489792
752.546875	115.526047
750.599609	187.365753
748.650391	195.020798
746.701172	162.907486
744.751953	170.564621
742.802734	182.064651
740.851562	220.478241
738.900391	188.388596
736.949219	169.126328
734.998047	161.401596
733.046875	152.399750
731.093750	177.972168
729.140625	254.736023
727.187500	254.677383
725.232422	222.631485
723.279297	182.925140
721.324219	177.767410
719.369141	196.905624
717.412109	175.128967
715.457031	219.819336
713.500000	167.382004
711.542969	246.544220
709.585938	194.124847
707.626953	206.848602
705.669922	225.949249
703.710938	191.438354
701.751953	146.735626
699.791016	173.490891
697.832031	188.755478
695.871094	198.912689
693.910156	154.249344
691.947266	155.488358
689.986328	159.275177
688.023438	166.881989
686.060547	165.569977
684.097656	164.258560
682.132812	176.951080
680.169922	208.728775
678.205078	170.507446
676.238281	122.126495
674.273438	155.166718
672.306641	124.613449
670.341797	167.808075
668.373047	189.376160
666.406250	114.361977
664.439453	133.391617
662.470703	135.901154
660.501953	137.139709
658.531250	137.108170
656.562500	151.038162
654.591797	152.272354
652.621094	129.401749
650.650391	134.445404
648.679688	139.486740
646.707031	116.634811
644.734375	121.677902
642.761719	117.848366
640.789062	135.557816
638.814453	134.260040
636.839844	139.294434
634.865234	131.666275
632.890625	130.370285
630.916016	105.031517
628.939453	120.189156
626.962891	140.399261
624.986328	122.663048
623.007812	137.806183
621.031250	126.398628
619.052734	114.996315
617.072266	120.023514
615.093750	125.048386
613.115234	135.122253
611.134766	126.253456
609.154297	124.962196
607.171875	124.933487
605.191406	122.381447
603.208984	145.058075
601.226562	161.418839
599.244141	119.775520
597.259766	115.966484
595.277344	105.858116
593.292969	107.093727
591.308594	124.704033
589.322266	113.341263
587.335938	133.460159
585.351562	112.030426
583.365234	123.331009
581.376953	122.044495
579.390625	124.532265
577.402344	133.306946
575.414062	150.878860
573.423828	89.249489
571.435547	121.904404
569.445312	120.619949
567.455078	145.715637
565.464844	133.123367
563.474609	164.482605
561.482422	154.402405
559.490234	109.186378
557.498047	169.388229
555.505859	120.426201
553.511719	159.277252
551.517578	225.695450
549.523438	176.754181
547.529297	184.233322
545.533203	132.818024
543.537109	154.083649
541.541016	142.776443
539.544922	151.508636
537.548828	106.407257
535.550781	91.364075
533.552734	123.876266
531.554688	138.859695
529.554688	145.081329
527.556641	132.543884
525.556641	136.263855
523.556641	118.734818
521.554688	132.452652
519.554688	128.674469
517.552734	118.653091
515.550781	153.589279
513.546875	136.076340
511.544922	132.300751
509.541016	138.509567
507.537109	94.813622
505.533203	147.176849
503.527344	101.004997
501.523438	123.422234
499.517578	107.190674
497.511719	120.873375
495.503906	155.728928
493.496094	151.956558
491.490234	122.035469
489.480469	175.541367
487.472656	177.990479
485.462891	184.171677
483.455078	155.514725
481.445312	144.284561
479.433594	134.303101
477.423828	139.245346
475.412109	84.522430
473.400391	142.909561
471.388672	126.725502
469.375000	134.149170
467.361328	145.294937
465.347656	129.121445
463.333984	135.298172
461.320312	110.447495
459.304688	100.496582
457.289062	177.379211
455.273438	155.016220
453.257812	142.582230
451.240234	116.518753
449.222656	109.056381
447.205078	111.509369
445.187500	131.303146
443.167969	110.219826
441.148438	141.148087
439.128906	133.688599
437.109375	141.083389
435.087891	131.152740
433.068359	171.943893
431.046875	249.818024
429.023438	257.179413
427.001953	196.548828
424.978516	203.919022
422.955078	170.511368
420.931641	138.354324
418.908203	112.387138
416.882812	140.760422
414.857422	135.790329
412.832031	129.588348
410.806641	102.413033
408.779297	140.631454
406.751953	114.699379
404.724609	129.469635
402.697266	109.715790
400.667969	85.041069
398.640625	120.755302
396.609375	134.278702
394.580078	119.468353
392.550781	124.366394
390.519531	124.337906
388.488281	104.616844
386.457031	123.050453
384.423828	123.022270
382.392578	122.994095
380.359375	111.898994
378.324219	132.772797
376.291016	86.036736
374.255859	105.678070
372.222656	116.710670
370.185547	126.509964
368.150391	135.076797
366.113281	135.045868
364.078125	135.014954
362.039062	100.624466
360.001953	89.559807
357.964844	134.922241
355.925781	106.686798
353.886719	129.956451
351.845703	89.477829
349.806641	89.457344
347.765625	89.436867
345.724609	102.890099
343.683594	102.866547
341.640625	93.048431
339.599609	117.507965
337.556641	96.677132
335.513672	134.582916
333.468750	151.676941
331.423828	124.737961
329.380859	114.928284
327.333984	113.679626
325.289062	136.873169
323.242188	136.841843
321.197266	95.278770
319.148438	89.150749
317.101562	131.864090
315.052734	119.627075
313.005859	126.922134
310.957031	123.232719
308.906250	112.225906
306.857422	109.761101
304.806641	113.393860
302.755859	115.805939
300.705078	125.529297
298.652344	120.626778
296.599609	84.053978
294.546875	113.264236
292.494141	109.585480
290.441406	85.213661
288.386719	97.364769
286.332031	104.643188
284.277344	104.619255
282.220703	121.622482
280.166016	76.604637
278.109375	117.919861
276.052734	66.846489
273.994141	83.842781
271.937500	81.393944
269.878906	93.520905
267.820312	99.570923
265.759766	108.046165
263.701172	108.021469
261.640625	118.917793
259.580078	70.363831
257.517578	93.392700
255.457031	109.135345
253.394531	84.863640
251.332031	98.176910
249.269531	96.942688
247.205078	124.785187
245.140625	111.433136
243.076172	95.665283
241.011719	144.070465
238.945312	91.990364
236.880859	134.323639
234.814453	123.404327
232.748047	95.556023
230.679688	99.162064
228.611328	117.274666
226.542969	131.752762
224.474609	130.514191
222.406250	137.733505
220.335938	99.048836
218.265625	124.386574
216.195312	124.358162
214.125000	118.294327
212.052734	136.369446
209.980469	113.414154
207.908203	106.150696
205.835938	92.860641
203.761719	72.342415
201.687500	95.229088
199.613281	89.181557
197.539062	102.414879
195.462891	137.325058
193.386719	90.324799
191.310547	113.181229
189.234375	107.136482
187.156250	84.245407
185.078125	50.535698
